# Case: 
# Column list: 
# Column 1: Radius in km 
# Column 2: Temperature in K 
# Column 4: Salt concentration in wt% 
1.520799817599999951e+06 2.692239999999999895e+02 7.499999999999998890e-01
1.520924818169999868e+06 2.666865665135902077e+02 3.676417701040608499e-01
1.521174819309999468e+06 2.627706589466129117e+02 3.645074974912511090e-01
1.521424820450000232e+06 2.604182273236791616e+02 3.629606656997361736e-01
1.521674821589999832e+06 2.592048253894146796e+02 3.625100410970177323e-01
1.521924822729999665e+06 2.586270314883958577e+02 3.625603714574505143e-01
1.522174823869999964e+06 2.583644697720110344e+02 3.628458813687889251e-01
1.522424825009999564e+06 2.582576386901517367e+02 3.632118678631821029e-01
1.522674826150000095e+06 2.582281885515943145e+02 3.635967512304919547e-01
1.522924827289999695e+06 2.582394551215222691e+02 3.639933348090426124e-01
1.523174828429999761e+06 2.582737179160034202e+02 3.644378520274024202e-01
1.523424829569999827e+06 2.583221891109641888e+02 3.649213201519313499e-01
1.523674830709999427e+06 2.583791795614373541e+02 3.654571855129348235e-01
1.523924831850000191e+06 2.584406638444852433e+02 3.660110406789286452e-01
1.524174832989999792e+06 2.585038969905604631e+02 3.665782572014810170e-01
1.524424834129999625e+06 2.585667914694436149e+02 3.671335692906416703e-01
1.524674835269999690e+06 2.586274007215873780e+02 3.676623811543802689e-01
1.524924836409999523e+06 2.586840561892940968e+02 3.681780185938351990e-01
1.525174837550000055e+06 2.587360365494556618e+02 3.686398134276063776e-01
1.525424838689999655e+06 2.587833579966722937e+02 3.690562138763582856e-01
1.525674839829999721e+06 2.588266847299963729e+02 3.694122686287510948e-01
1.525924840970000252e+06 2.588677721125496873e+02 3.697420768994622575e-01
1.526174842109999387e+06 2.589074884753183596e+02 3.700145328515357934e-01
1.526424843250000151e+06 2.589464061407922486e+02 3.702579114227083634e-01
1.526674844389999751e+06 2.589848815402380069e+02 3.704448830540482684e-01
1.526924845529999584e+06 2.590227854073488061e+02 3.705701858147160133e-01
1.527174846670000115e+06 2.590597735680045162e+02 3.706632901245318079e-01
1.527424847809999716e+06 2.590951122475549937e+02 3.706790632465187252e-01
1.527674848950000014e+06 2.591276860927807775e+02 3.706589089559961803e-01
1.527924850089999614e+06 2.591566933663569898e+02 3.705723243550776425e-01
1.528174851229999680e+06 2.591811788254296971e+02 3.703968404120208668e-01
1.528424852369999746e+06 2.592000541264825415e+02 3.701740736328668624e-01
1.528674853509999579e+06 2.592139224020850179e+02 3.698598353574782394e-01
1.528924854650000110e+06 2.592261300107830948e+02 3.695441784834861965e-01
1.529174855789999478e+06 2.592413196105987367e+02 3.692793325713734642e-01
1.529424856929999776e+06 2.592623345997293427e+02 3.691305910901430676e-01
1.529674858070000308e+06 2.592880943128626541e+02 3.691787618699401419e-01
1.529924859209999675e+06 2.593137004353023940e+02 3.692569636634315811e-01
1.530174860350000206e+06 2.593339013179985955e+02 3.693538700026693933e-01
1.530424861489999574e+06 2.593452436459363071e+02 3.694346228718216052e-01
1.530674862629999872e+06 2.593466142678106507e+02 3.695015600084325946e-01
1.530924863770000171e+06 2.593385606450117393e+02 3.695185652140959287e-01
1.531174864909999538e+06 2.593231786469726785e+02 3.695277821691264619e-01
1.531424866050000302e+06 2.593029065415624927e+02 3.695456037002718963e-01
1.531674867189999903e+06 2.592801679746617083e+02 3.695719639360843800e-01
1.531924868329999736e+06 2.592574523356997815e+02 3.695880885079064759e-01
1.532174869470000500e+06 2.592373346706093571e+02 3.696113948497937729e-01
1.532424870609999401e+06 2.592213482584633084e+02 3.696608151217789517e-01
1.532674871750000166e+06 2.592097863370798905e+02 3.697055102118764758e-01
1.532924872889999766e+06 2.592015975071425373e+02 3.697699811426937710e-01
1.533174874029999832e+06 2.591951255958178422e+02 3.698342168413710773e-01
1.533424875170000363e+06 2.591879968520535158e+02 3.698895540547502137e-01
1.533674876309999498e+06 2.591782592996104313e+02 3.698961831449522064e-01
1.533924877450000262e+06 2.591645367624528262e+02 3.698999772001435038e-01
1.534174878589999862e+06 2.591467750831734520e+02 3.698810962299951544e-01
1.534424879729999695e+06 2.591257247601032532e+02 3.698358152871648041e-01
1.534674880870000459e+06 2.591036369236685459e+02 3.697571396073141559e-01
1.534924882009999128e+06 2.590832895163747480e+02 3.696525236957562410e-01
1.535174883150000125e+06 2.590677216547938997e+02 3.695432353528968483e-01
1.535424884289999725e+06 2.590589041120987304e+02 3.694335956148154798e-01
1.535674885429999791e+06 2.590579731512873423e+02 3.693365386192340449e-01
1.535924886570000323e+06 2.590644250525905363e+02 3.692587489211435758e-01
1.536174887709999457e+06 2.590767446254046149e+02 3.691916705474256322e-01
1.536424888850000221e+06 2.590932451664862697e+02 3.691343522264737276e-01
1.536674889989999821e+06 2.591119130959349377e+02 3.690620445765136481e-01
1.536924891129999654e+06 2.591304961526152510e+02 3.689754024527127085e-01
1.537174892270000419e+06 2.591461515472550445e+02 3.688635356771775564e-01
1.537424893409999320e+06 2.591550114245404757e+02 3.686547684179906637e-01
1.537674894550000085e+06 2.591502283597224050e+02 3.683486136798032051e-01
1.537924895689999685e+06 2.591280552830598936e+02 3.678324209796453026e-01
1.538174896829999518e+06 2.590957739753634996e+02 3.672462966511277349e-01
1.538424897970000282e+06 2.590711109328333350e+02 3.668457219863389129e-01
1.538674899109999882e+06 2.590698172050445010e+02 3.667159306743391634e-01
1.538924900249999948e+06 2.590949724959640434e+02 3.668261736567121067e-01
1.539174901389999781e+06 2.591377378899113637e+02 3.669926332997351937e-01
1.539424902529999614e+06 2.591853592369041053e+02 3.670648934941477814e-01
1.539674903670000378e+06 2.592261165132051701e+02 3.669929639439304392e-01
1.539924904809999745e+06 2.592546457331421266e+02 3.669270176472753109e-01
1.540174905950000044e+06 2.592704397497204809e+02 3.668769465742659497e-01
1.540424907089999644e+06 2.592775781243182109e+02 3.668349105834877166e-01
1.540674908229999477e+06 2.592794149407588407e+02 3.667292514163597583e-01
1.540924909370000241e+06 2.592798016342151755e+02 3.666102136176678239e-01
1.541174910509999841e+06 2.592789906081229105e+02 3.664079079565477626e-01
1.541424911650000140e+06 2.592769148639106902e+02 3.661208375466679654e-01
1.541674912789999507e+06 2.592706628472420789e+02 3.658055710512982950e-01
1.541924913929999806e+06 2.592572990887583728e+02 3.653260551837742565e-01
1.542174915070000337e+06 2.592312111758539004e+02 3.648037798038534785e-01
1.542424916209999705e+06 2.591850319466165615e+02 3.641865365139052013e-01
1.542674917350000236e+06 2.591082837007580224e+02 3.633816043590804012e-01
1.542924918489999603e+06 2.589884540877647510e+02 3.624794309310062079e-01
1.543174919629999669e+06 2.588086495111124918e+02 3.613197137951832394e-01
1.543424920770000201e+06 2.585526706610484098e+02 3.599275274973761651e-01
1.543674921909999801e+06 2.581978876574833066e+02 3.580420553266812078e-01
1.543924923050000099e+06 2.577241920478996349e+02 3.557515132702661620e-01
1.544174924189999932e+06 2.571237510618656188e+02 3.522087894789887041e-01
1.544424925329999765e+06 2.564053864610675078e+02 3.479993167688443800e-01
1.544674926470000297e+06 2.555924952219829720e+02 3.444331400804421239e-01
1.544924927609999664e+06 2.546950707423394249e+02 3.406093897381421987e-01
1.545174928750000196e+06 2.536970352593903328e+02 3.356857545586824920e-01
1.545424929889999796e+06 2.525516444618297669e+02 3.293679298600080685e-01
1.545674931029999629e+06 2.512032812508210498e+02 3.218156443536923650e-01
1.545924932170000393e+06 2.496098918802929916e+02 3.125889657207381322e-01
1.546174933309999760e+06 2.477418446251938633e+02 3.015381891420405580e-01
1.546424934450000059e+06 2.455823499577615507e+02 2.884334880653635080e-01
1.546674935590000125e+06 2.431318578878261292e+02 2.735370210779396460e-01
1.546924936729999725e+06 2.404091762373522556e+02 2.586022697078462218e-01
1.547174937870000256e+06 2.374504782469896895e+02 2.421129779350878475e-01
1.547424939009999856e+06 2.343020822533800924e+02 2.214639813126107470e-01
1.547674940150000155e+06 2.310131748026365699e+02 1.951494356453897794e-01
1.547924941290000221e+06 2.276303803524934324e+02 1.672041247451190038e-01
1.548174942429999588e+06 2.241952870335223906e+02 1.400595390546396368e-01
1.548424943570000352e+06 2.207434850373870177e+02 1.135782133405980471e-01
1.548674944709999952e+06 2.173040099649075501e+02 8.941058887550529244e-02
1.548924945850000018e+06 2.138991727528984939e+02 7.017151711350821941e-02
1.549174946990000084e+06 2.105449392086910905e+02 5.585537753933596250e-02
1.549424948130000150e+06 2.072520446415005040e+02 4.521021422851063259e-02
1.549674949270000216e+06 2.040271845259333645e+02 3.763425078003054119e-02
1.549924950409999816e+06 2.008740737986556439e+02 3.358731001412146311e-02
1.550174951550000114e+06 1.977943556270009822e+02 3.108561761645081689e-02
1.550424952690000180e+06 1.947882339661940705e+02 2.891263171238225155e-02
1.550674953830000013e+06 1.918549192735250699e+02 2.691845937118855780e-02
1.550924954970000312e+06 1.889929420635151018e+02 2.512722308079615163e-02
1.551174956109999912e+06 1.862003802540047559e+02 2.350142137288278171e-02
1.551424957249999978e+06 1.834750256463274241e+02 2.217270748058738916e-02
1.551674958390000276e+06 1.808145052737532126e+02 2.123710333663464400e-02
1.551924959530000109e+06 1.782163686321616183e+02 2.051812135918076874e-02
1.552174960670000175e+06 1.756781481306001353e+02 2.004925470067339330e-02
1.552424961810000008e+06 1.731973997519837383e+02 1.982922068285707801e-02
1.552674962950000307e+06 1.707717286567085466e+02 1.939700344346597521e-02
1.552924964090000140e+06 1.683988035428610885e+02 1.921589166841004490e-02
1.553174965229999973e+06 1.660763632634670159e+02 1.910632580639672756e-02
1.553424966370000271e+06 1.638022181978148808e+02 1.915457016268891366e-02
1.553674967509999871e+06 1.615742484102975141e+02 1.975785731164615006e-02
1.553924968650000170e+06 1.593903999765207402e+02 2.112675731553265157e-02
1.554174969790000236e+06 1.572486804872835648e+02 2.403824572336124565e-02
1.554424970930000069e+06 1.551471543635759360e+02 2.810743791053973983e-02
1.554674972070000600e+06 1.530839383748758564e+02 3.687203714320957948e-02
1.554924973209999735e+06 1.510571975499677819e+02 5.450604422942539190e-02
1.555174974350000266e+06 1.490651415648685827e+02 9.416884819321277855e-02
1.555424975490000099e+06 1.471060216033949359e+02 1.684988677455132589e-01
1.555674976629999932e+06 1.451781276421939992e+02 2.987943113218201052e-01
1.555924977770000696e+06 1.432797860958269780e+02 5.440664653028591813e-01
1.556174978909999598e+06 1.414093577496203409e+02 9.614665741164212243e-01
1.556424980050000129e+06 1.395652359111709586e+02 1.567367961767418105e+00
1.556674981190000894e+06 1.377458447191079074e+02 2.285855206336263379e+00
1.556924982330000028e+06 1.359496375576310072e+02 2.984300972438151067e+00
1.557174983470000559e+06 1.341750955355280723e+02 3.534563778050141991e+00
1.557424984609999694e+06 1.324207259977001740e+02 3.921318132156076608e+00
1.557674985750000225e+06 1.306850610454981165e+02 4.236027274864218484e+00
1.557924986890000058e+06 1.289666560490427685e+02 4.532503159642824464e+00
1.558174988029999891e+06 1.272640881402411850e+02 4.835615426254097571e+00
1.558424989170000656e+06 1.255759546795973449e+02 5.152757065023752858e+00
1.558674990310000256e+06 1.239008716932302150e+02 5.486423776773527550e+00
1.558924991450000089e+06 1.222374722789825512e+02 5.840917922816628582e+00
1.559174992590000853e+06 1.205844049822698310e+02 6.217709026579456122e+00
1.559424993729999755e+06 1.189403321435863887e+02 6.618726769383810549e+00
1.559674994870000519e+06 1.173039282203449147e+02 7.045587565191413049e+00
1.559924996010000352e+06 1.156738780863204852e+02 7.499999999999396039e+00
1.560174997150000185e+06 1.140488753122234016e+02 7.500000000000000000e+00
1.560424998290000716e+06 1.124276204310884424e+02 7.500000000000000000e+00
1.560674999429999851e+06 1.108088191922646217e+02 7.500000000000000000e+00
1.560800000000000000e+06 1.100000000000000000e+02 7.500000000000000000e+00
